id,lat,lon
1000001,-28.163,153.5556
1000002,-28.1636,153.5563
1000003,-28.1642,153.5571
1000004,-28.1648,153.5579
1000005,-28.1655,153.5586
1000006,-28.1661,153.5594
1000007,-28.1667,153.5602
1000008,-28.1673,153.561
1000009,-28.1681,153.5617
1000010,-28.1689,153.5622
1000011,-28.1699,153.5622
1000012,-28.1708,153.5619
1000013,-28.1718,153.5618
1000014,-28.1728,153.5618
1000015,-28.1738,153.5619
1000016,-28.1748,153.562
1000017,-28.1758,153.5622
1000018,-28.1768,153.5624
1000019,-28.1777,153.5627
1000020,-28.1787,153.5629
1000021,-28.1797,153.5632
1000022,-28.1806,153.5636
1000023,-28.1815,153.5639
1000024,-28.1825,153.5643
1000025,-28.1834,153.5645
1000026,-28.1843,153.5649
1000027,-28.1853,153.5652
1000028,-28.1862,153.5657
1000029,-28.1871,153.5662
1000030,-28.188,153.5665
1000031,-28.1889,153.567
1000032,-28.1898,153.5675
1000033,-28.1905,153.5681
1000034,-28.1914,153.5686
1000035,-28.1921,153.5693
1000036,-28.1928,153.57
1000037,-28.1933,153.5708
1000038,-28.1941,153.5713
1000039,-28.1947,153.5721
1000040,-28.1955,153.5728
1000041,-28.197,153.5743
1000042,-28.198,153.5742
1000043,-28.199,153.5743
1000044,-28.2,153.5745
1000045,-28.201,153.5746
1000046,-28.202,153.5743
1000047,-28.2028,153.5738
1000048,-28.2037,153.5733
1000049,-28.2047,153.573
1000050,-28.2056,153.5727
1000051,-28.2066,153.5725
1000052,-28.2076,153.5723
1000053,-28.2086,153.5721
1000054,-28.2096,153.572
1000055,-28.2106,153.5719
1000056,-28.2115,153.5717
1000057,-28.2125,153.5716
1000058,-28.2135,153.5715
1000059,-28.2145,153.5714
1000060,-28.2155,153.5714
1000061,-28.2165,153.5713
1000062,-28.2175,153.5713
1000063,-28.2185,153.5714
1000064,-28.2195,153.5714
1000065,-28.2205,153.5713
1000066,-28.2215,153.5713
1000067,-28.2225,153.5713
1000068,-28.2236,153.5712
1000069,-28.224,153.5717
1000070,-28.2251,153.5718
1000071,-28.226,153.5718
1000072,-28.2271,153.5717
1000073,-28.228,153.5719
1000074,-28.229,153.5719
1000075,-28.23,153.572
1000076,-28.231,153.5721
1000077,-28.232,153.5722
1000078,-28.233,153.5723
1000079,-28.234,153.5724
1000080,-28.2349,153.5726
1000081,-28.2359,153.5728
1000082,-28.2369,153.5731
1000083,-28.2377,153.5735
1000084,-28.2387,153.5739
1000085,-28.2397,153.5739
1000086,-28.2406,153.5741
1000087,-28.2416,153.5744
1000088,-28.2425,153.5747
1000089,-28.2435,153.5749
1000090,-28.2444,153.5754
1000091,-28.2453,153.5758
1000092,-28.2462,153.5763
1000093,-28.2471,153.5767
1000094,-28.2477,153.5775
1000095,-28.2484,153.5782
1000096,-28.2488,153.5791
1000097,-28.2491,153.58
1000098,-28.2496,153.5809
1000099,-28.2497,153.5819
1000100,-28.25,153.5829
1000101,-28.2503,153.5838
1000102,-28.2505,153.5848
1000103,-28.2509,153.5857
1000104,-28.2515,153.5865
1000105,-28.2525,153.5864
1000106,-28.2533,153.5863
1000107,-28.2531,153.5872
1000108,-28.2523,153.5879
1000109,-28.2521,153.5888
1000110,-28.2519,153.5897
1000111,-28.2526,153.59
1000112,-28.2523,153.5909
1000113,-28.2527,153.5917
1000114,-28.254,153.5926
1000115,-28.2548,153.5924
1000116,-28.2546,153.5914
1000117,-28.2547,153.5904
1000118,-28.2553,153.5898
1000119,-28.2561,153.5894
1000120,-28.2571,153.5896
1000121,-28.2581,153.5898
1000122,-28.259,153.5901
1000123,-28.2599,153.5901
1000124,-28.2609,153.5901
1000125,-28.2618,153.5897
1000126,-28.2628,153.5895
1000127,-28.2636,153.5889
1000128,-28.2646,153.5887
1000129,-28.2655,153.5884
1000130,-28.2665,153.5881
1000131,-28.2675,153.5879
1000132,-28.2684,153.5877
1000133,-28.2694,153.5874
1000134,-28.2703,153.5871
1000135,-28.2713,153.5868
1000136,-28.2722,153.5865
1000137,-28.2732,153.5863
1000138,-28.2742,153.5861
1000139,-28.2752,153.5859
1000140,-28.2761,153.5856
1000141,-28.2771,153.5853
1000142,-28.2781,153.5851
1000143,-28.2791,153.5849
1000144,-28.28,153.5847
1000145,-28.281,153.5845
1000146,-28.282,153.5842
1000147,-28.283,153.584
1000148,-28.2839,153.5838
1000149,-28.2849,153.5836
1000150,-28.2859,153.5835
1000151,-28.2869,153.5833
1000152,-28.2879,153.5831
1000153,-28.2889,153.5829
1000154,-28.2898,153.5827
1000155,-28.2908,153.5824
1000156,-28.2918,153.5822
1000157,-28.2928,153.5821
1000158,-28.2937,153.5819
1000159,-28.2947,153.5817
1000160,-28.2957,153.5815
1000161,-28.2967,153.5814
1000162,-28.2977,153.5812
1000163,-28.2987,153.581
1000164,-28.2996,153.5808
1000165,-28.3006,153.5806
1000166,-28.3016,153.5804
1000167,-28.3026,153.5803
1000168,-28.3036,153.5801
1000169,-28.3046,153.58
1000170,-28.3056,153.5799
1000171,-28.3065,153.5797
1000172,-28.3075,153.5796
1000173,-28.3085,153.5795
1000174,-28.3095,153.5794
1000175,-28.3105,153.5793
1000176,-28.3115,153.5792
1000177,-28.3125,153.5791
1000178,-28.3135,153.5791
1000179,-28.3145,153.579
1000180,-28.3155,153.579
1000181,-28.3165,153.5789
1000182,-28.3175,153.5788
1000183,-28.3185,153.5787
1000184,-28.3195,153.5786
1000185,-28.3205,153.5786
1000186,-28.3215,153.5784
1000187,-28.3225,153.5783
1000188,-28.3235,153.5783
1000189,-28.3245,153.5783
1000190,-28.3255,153.5784
1000191,-28.3265,153.5785
1000192,-28.3275,153.5785
1000193,-28.3284,153.5787
1000194,-28.3294,153.5787
1000195,-28.3304,153.5787
1000196,-28.3314,153.5788
1000197,-28.3324,153.579
1000198,-28.3333,153.5794
1000199,-28.3341,153.5798
1000200,-28.3351,153.5802
1000201,-28.336,153.5802
1000202,-28.3369,153.5804
1000203,-28.3379,153.5804
1000204,-28.3389,153.5804
1000205,-28.3399,153.5804
1000206,-28.3409,153.5804
1000207,-28.3419,153.5804
1000208,-28.3429,153.5803
1000209,-28.3439,153.5802
1000210,-28.3449,153.5801
1000211,-28.3459,153.58
1000212,-28.3469,153.58
1000213,-28.3479,153.58
1000214,-28.3489,153.58
1000215,-28.3499,153.58
1000216,-28.3509,153.58
1000217,-28.3519,153.5801
1000218,-28.3529,153.5804
1000219,-28.3538,153.5808
1000220,-28.3547,153.5812
1000221,-28.3556,153.5815
1000222,-28.3563,153.582
1000223,-28.3569,153.5828
1000224,-28.3574,153.5836
1000225,-28.3581,153.5844
1000226,-28.3588,153.5848
1000227,-28.3598,153.5847
1000228,-28.3605,153.5842
1000229,-28.3612,153.5836
1000230,-28.3621,153.5834
1000231,-28.363,153.5831
1000232,-28.3639,153.5827
1000233,-28.3649,153.5824
1000234,-28.3658,153.5819
1000235,-28.3667,153.5815
1000236,-28.3675,153.5811
1000237,-28.3684,153.5807
1000238,-28.3694,153.5803
1000239,-28.3703,153.58
1000240,-28.3712,153.5796
1000241,-28.3721,153.5792
1000242,-28.3731,153.5788
1000243,-28.374,153.5785
1000244,-28.375,153.5783
1000245,-28.376,153.578
1000246,-28.3769,153.5778
1000247,-28.3779,153.5775
1000248,-28.3788,153.5772
1000249,-28.3798,153.577
1000250,-28.3808,153.5768
1000251,-28.3818,153.5766
1000252,-28.3828,153.5764
1000253,-28.3837,153.5762
1000254,-28.3847,153.5759
1000255,-28.3857,153.5756
1000256,-28.3866,153.5754
1000257,-28.3876,153.5751
1000258,-28.3885,153.5748
1000259,-28.3895,153.5746
1000260,-28.3904,153.5742
1000261,-28.3914,153.5739
1000262,-28.3924,153.5736
1000263,-28.3933,153.5733
1000264,-28.3943,153.573
1000265,-28.3952,153.5727
1000266,-28.3962,153.5726
1000267,-28.3972,153.5723
1000268,-28.3982,153.5722
1000269,-28.3991,153.5719
1000270,-28.4001,153.5717
1000271,-28.4011,153.5716
1000272,-28.4021,153.5715
1000273,-28.4031,153.5714
1000274,-28.4041,153.5711
1000275,-28.405,153.571
1000276,-28.406,153.5708
1000277,-28.407,153.5704
1000278,-28.4079,153.5701
1000279,-28.4089,153.5699
1000280,-28.4099,153.5699
1000281,-28.4109,153.5697
1000282,-28.4119,153.5695
1000283,-28.4128,153.5691
1000284,-28.4137,153.5688
1000285,-28.4147,153.5684
1000286,-28.4156,153.5681
1000287,-28.4166,153.5679
1000288,-28.4176,153.5677
1000289,-28.4185,153.5674
1000290,-28.4195,153.5671
1000291,-28.4205,153.5668
1000292,-28.4214,153.5665
1000293,-28.4224,153.5663
1000294,-28.4233,153.566
1000295,-28.4243,153.5659
1000296,-28.4253,153.5657
1000297,-28.4263,153.5655
1000298,-28.4272,153.5652
1000299,-28.4282,153.565
1000300,-28.4292,153.5648
1000301,-28.4302,153.5648
1000302,-28.4312,153.5646
1000303,-28.4321,153.5643
1000304,-28.4331,153.5641
1000305,-28.4341,153.5639
1000306,-28.4351,153.5637
1000307,-28.4361,153.5635
1000308,-28.437,153.5633
1000309,-28.438,153.563
1000310,-28.439,153.5629
1000311,-28.44,153.5627
1000312,-28.4409,153.5626
1000313,-28.4419,153.5624
1000314,-28.4429,153.5622
1000315,-28.4439,153.562
1000316,-28.4449,153.5619
1000317,-28.4459,153.5617
1000318,-28.4469,153.5615
1000319,-28.4478,153.5613
1000320,-28.4488,153.5611
1000321,-28.4498,153.561
1000322,-28.4508,153.5609
1000323,-28.4518,153.5607
1000324,-28.4528,153.5606
1000325,-28.4537,153.5604
1000326,-28.4547,153.5602
1000327,-28.4557,153.56
1000328,-28.4567,153.5599
1000329,-28.4577,153.5598
1000330,-28.4587,153.5597
1000331,-28.4597,153.5596
1000332,-28.4607,153.5595
1000333,-28.4617,153.5593
1000334,-28.4627,153.5592
1000335,-28.4637,153.5592
1000336,-28.4647,153.559
1000337,-28.4656,153.5589
1000338,-28.4666,153.5588
1000339,-28.4676,153.5587
1000340,-28.4686,153.5587
1000341,-28.4696,153.5586
1000342,-28.4706,153.5585
1000343,-28.4716,153.5584
1000344,-28.4726,153.5584
1000345,-28.4736,153.5584
1000346,-28.4746,153.5583
1000347,-28.4756,153.5583
1000348,-28.4766,153.5583
1000349,-28.4776,153.5582
1000350,-28.4786,153.5582
1000351,-28.4792,153.5588
1000352,-28.4796,153.5596
1000353,-28.4807,153.5598
1000354,-28.4816,153.5598
1000355,-28.4826,153.5596
1000356,-28.4836,153.5593
1000357,-28.4845,153.5591
1000358,-28.4855,153.5589
1000359,-28.4865,153.559
1000360,-28.4875,153.5592
1000361,-28.4885,153.5594
1000362,-28.4895,153.5595
1000363,-28.4905,153.5594
1000364,-28.4915,153.5594
1000365,-28.4925,153.5594
1000366,-28.4935,153.5594
1000367,-28.4945,153.5595
1000368,-28.4955,153.5595
1000369,-28.4965,153.5596
1000370,-28.4975,153.5596
1000371,-28.4985,153.5597
1000372,-28.4995,153.5597
1000373,-28.5005,153.5596
1000374,-28.5015,153.5594
1000375,-28.5024,153.5591
1000376,-28.5033,153.5587
1000377,-28.5042,153.5583
1000378,-28.5052,153.5581
1000379,-28.5062,153.5582
1000380,-28.5072,153.5583
1000381,-28.5082,153.5584
1000382,-28.5092,153.5587
1000383,-28.5102,153.5589
1000384,-28.5111,153.5593
1000385,-28.5119,153.5599
1000386,-28.5127,153.5605
1000387,-28.5137,153.5607
1000388,-28.5146,153.5605
1000389,-28.5156,153.5602
1000390,-28.5166,153.5599
1000391,-28.5175,153.5596
1000392,-28.5185,153.5593
1000393,-28.5194,153.5591
1000394,-28.5204,153.5589
1000395,-28.5214,153.5588
1000396,-28.5224,153.5587
1000397,-28.5234,153.5588
1000398,-28.5244,153.5588
1000399,-28.5254,153.5589
1000400,-28.5264,153.5591
1000401,-28.5273,153.5595
1000402,-28.5282,153.5599
1000403,-28.5291,153.5603
1000404,-28.5301,153.5607
1000405,-28.531,153.5611
1000406,-28.5319,153.5615
1000407,-28.5329,153.5618
1000408,-28.5338,153.5619
1000409,-28.5348,153.562
1000410,-28.5358,153.5621
1000411,-28.5368,153.5622
1000412,-28.5378,153.5623
1000413,-28.5388,153.5626
1000414,-28.5398,153.5628
1000415,-28.5408,153.5628
1000416,-28.5418,153.5627
1000417,-28.5428,153.5626
1000418,-28.5437,153.5623
1000419,-28.5447,153.5621
1000420,-28.5453,153.5628
1000421,-28.5455,153.5637
1000422,-28.5461,153.5646
1000423,-28.5469,153.5651
1000424,-28.5479,153.5654
1000425,-28.5488,153.5653
1000426,-28.5497,153.5648
1000427,-28.5506,153.5645
1000428,-28.5516,153.5646
1000429,-28.5525,153.565
1000430,-28.5535,153.565
1000431,-28.5545,153.5651
1000432,-28.5555,153.5652
1000433,-28.5565,153.5653
1000434,-28.5575,153.5656
1000435,-28.5584,153.566
1000436,-28.5593,153.5664
1000437,-28.5602,153.5668
1000438,-28.5612,153.5671
1000439,-28.5622,153.5674
1000440,-28.5632,153.5674
1000441,-28.5642,153.5675
1000442,-28.5651,153.5676
1000443,-28.5661,153.5676
1000444,-28.5671,153.5677
1000445,-28.5681,153.5679
1000446,-28.569,153.5683
1000447,-28.57,153.5686
1000448,-28.571,153.5688
1000449,-28.5719,153.5691
1000450,-28.5729,153.5694
1000451,-28.5739,153.5696
1000452,-28.5748,153.5699
1000453,-28.5758,153.5702
1000454,-28.5767,153.5705
1000455,-28.5776,153.5709
1000456,-28.5786,153.5713
1000457,-28.5795,153.5716
1000458,-28.5804,153.572
1000459,-28.5814,153.5723
1000460,-28.5824,153.5726
1000461,-28.5833,153.5728
1000462,-28.5843,153.5729
1000463,-28.5853,153.5731
1000464,-28.5863,153.5733
1000465,-28.5873,153.5735
1000466,-28.5882,153.5737
1000467,-28.5892,153.574
1000468,-28.5902,153.5743
1000469,-28.5911,153.5748
1000470,-28.5919,153.5752
1000471,-28.5929,153.5756
1000472,-28.5938,153.576
1000473,-28.5947,153.5765
1000474,-28.5956,153.5769
1000475,-28.5965,153.5774
1000476,-28.5973,153.5779
1000477,-28.5982,153.5784
1000478,-28.5989,153.5791
1000479,-28.5997,153.5797
1000480,-28.6005,153.5803
1000481,-28.6012,153.581
1000482,-28.602,153.5816
1000483,-28.6027,153.5823
1000484,-28.6035,153.583
1000485,-28.6042,153.5837
1000486,-28.605,153.5843
1000487,-28.6059,153.5847
1000488,-28.6066,153.5854
1000489,-28.6071,153.5862
1000490,-28.608,153.5866
1000491,-28.609,153.5869
1000492,-28.61,153.5872
1000493,-28.6111,153.5875
1000494,-28.6121,153.5877
1000495,-28.6132,153.588
1000496,-28.6142,153.5883
1000497,-28.6153,153.5886
1000498,-28.6163,153.5888
1000499,-28.6174,153.5891
1000500,-28.6184,153.5894
1000501,-28.6194,153.5897
1000502,-28.6203,153.5901
1000503,-28.6209,153.5906
1000504,-28.6211,153.5915
1000505,-28.6217,153.5922
1000506,-28.6224,153.5929
1000507,-28.6232,153.5935
1000508,-28.624,153.5942
1000509,-28.6248,153.5948
1000510,-28.6256,153.5954
1000511,-28.6265,153.5958
1000512,-28.6272,153.5965
1000513,-28.6278,153.5974
1000514,-28.6285,153.598
1000515,-28.6293,153.5986
1000516,-28.6299,153.5994
1000517,-28.6304,153.6003
1000518,-28.6309,153.6012
1000519,-28.6313,153.6021
1000520,-28.6319,153.6029
1000521,-28.6327,153.6034
1000522,-28.6333,153.6031
1000523,-28.6334,153.604
1000524,-28.6335,153.605
1000525,-28.6337,153.606
1000526,-28.6337,153.607
1000527,-28.6335,153.608
1000528,-28.6334,153.609
1000529,-28.6334,153.61
1000530,-28.6334,153.611
1000531,-28.6334,153.612
1000532,-28.6332,153.613
1000533,-28.6332,153.614
1000534,-28.6332,153.615
1000535,-28.6331,153.616
1000536,-28.633,153.6169
1000537,-28.6332,153.6179
1000538,-28.6329,153.6189
1000539,-28.6329,153.6199
1000540,-28.6329,153.6209
1000541,-28.6327,153.6219
1000542,-28.6326,153.6228
1000543,-28.6324,153.6238
1000544,-28.6322,153.6248
1000545,-28.632,153.6258
1000546,-28.6319,153.6268
1000547,-28.6317,153.6278
1000548,-28.6315,153.6287
1000549,-28.6314,153.6297
1000550,-28.6313,153.6307
1000551,-28.6311,153.6317
1000552,-28.631,153.6327
1000553,-28.6307,153.6337
1000554,-28.6304,153.6346
1000555,-28.6301,153.6356
1000556,-28.6299,153.6366
1000557,-28.63,153.6375
1000558,-28.6301,153.6385
1000559,-28.6304,153.6395
1000560,-28.6311,153.6402
1000561,-28.6319,153.6408
1000562,-28.6326,153.6414
1000563,-28.6335,153.6411
1000564,-28.6345,153.6409
1000565,-28.6355,153.6406
1000566,-28.6365,153.6406
1000567,-28.6374,153.6403
1000568,-28.6384,153.6404
1000569,-28.6394,153.6402
1000570,-28.6404,153.64
1000571,-28.6414,153.6398
1000572,-28.6424,153.6396
1000573,-28.6433,153.6394
1000574,-28.6443,153.6391
1000575,-28.6453,153.6389
1000576,-28.6461,153.6384
1000577,-28.647,153.6379
1000578,-28.6477,153.6372
1000579,-28.6486,153.6366
1000580,-28.6494,153.6362
1000581,-28.6502,153.6355
1000582,-28.6511,153.635
1000583,-28.6518,153.6344
1000584,-28.6527,153.6339
1000585,-28.6536,153.6335
1000586,-28.6545,153.6331
1000587,-28.6554,153.6326
1000588,-28.6562,153.632
1000589,-28.6571,153.6315
1000590,-28.658,153.6311
1000591,-28.659,153.6308
1000592,-28.6599,153.6304
1000593,-28.6608,153.63
1000594,-28.6617,153.6295
1000595,-28.6626,153.6291
1000596,-28.6635,153.6288
1000597,-28.6645,153.6284
1000598,-28.6654,153.6281
1000599,-28.6663,153.6277
1000600,-28.6673,153.6274
1000601,-28.6682,153.6271
1000602,-28.6691,153.6266
1000603,-28.67,153.6262
1000604,-28.671,153.626
1000605,-28.672,153.6257
1000606,-28.673,153.6255
1000607,-28.6739,153.6252
1000608,-28.6748,153.6247
1000609,-28.6757,153.6245
1000610,-28.6766,153.624
1000611,-28.6776,153.6237
1000612,-28.6785,153.6234
1000613,-28.6795,153.6232
1000614,-28.6805,153.6229
1000615,-28.6814,153.6227
1000616,-28.6824,153.6224
1000617,-28.6833,153.6221
1000618,-28.6843,153.6218
1000619,-28.6853,153.6215
1000620,-28.6862,153.6213
1000621,-28.6872,153.6211
1000622,-28.6882,153.6209
1000623,-28.6892,153.6209
1000624,-28.6902,153.6207
1000625,-28.6912,153.6206
1000626,-28.6922,153.6204
1000627,-28.6931,153.6205
1000628,-28.6941,153.6205
1000629,-28.6951,153.6205
1000630,-28.6961,153.6206
1000631,-28.6971,153.6207
1000632,-28.6981,153.6207
1000633,-28.699,153.6209
1000634,-28.6999,153.6214
1000635,-28.7008,153.6219
1000636,-28.7016,153.6224
1000637,-28.7025,153.623
1000638,-28.7033,153.6236
1000639,-28.7042,153.6239
1000640,-28.7052,153.6239
1000641,-28.7062,153.6238
1000642,-28.7072,153.6237
1000643,-28.708,153.6232
1000644,-28.7089,153.6228
1000645,-28.7096,153.6221
1000646,-28.7106,153.6222
1000647,-28.7117,153.6223
1000648,-28.7127,153.6224
1000649,-28.7137,153.6224
1000650,-28.7146,153.6225
1000651,-28.7156,153.6227
1000652,-28.7166,153.6227
1000653,-28.7176,153.6227
1000654,-28.7186,153.6227
1000655,-28.7196,153.6228
1000656,-28.7206,153.6227
1000657,-28.7216,153.6225
1000658,-28.7226,153.6224
1000659,-28.7236,153.6224
1000660,-28.7246,153.6223
1000661,-28.7255,153.6219
1000662,-28.7264,153.6214
1000663,-28.7273,153.6211
1000664,-28.7282,153.6206
1000665,-28.729,153.62
1000666,-28.7297,153.6193
1000667,-28.7305,153.6188
1000668,-28.7314,153.6183
1000669,-28.7323,153.6178
1000670,-28.7332,153.6174
1000671,-28.7341,153.617
1000672,-28.735,153.6165
1000673,-28.736,153.6162
1000674,-28.7369,153.616
1000675,-28.7379,153.6158
1000676,-28.7388,153.6153
1000677,-28.7396,153.6147
1000678,-28.7404,153.6141
1000679,-28.7411,153.6134
1000680,-28.742,153.6131
1000681,-28.743,153.6133
1000682,-28.744,153.6133
1000683,-28.7449,153.6129
1000684,-28.7457,153.6123
1000685,-28.7467,153.6121
1000686,-28.7477,153.6119
1000687,-28.7486,153.6115
1000688,-28.7494,153.611
1000689,-28.7504,153.6107
1000690,-28.7514,153.6104
1000691,-28.7523,153.6103
1000692,-28.7533,153.6102
1000693,-28.7543,153.6101
1000694,-28.7553,153.6098
1000695,-28.7562,153.6093
1000696,-28.757,153.6088
1000697,-28.758,153.6085
1000698,-28.759,153.6083
1000699,-28.76,153.6084
1000700,-28.7609,153.6087
1000701,-28.7619,153.6088
1000702,-28.7629,153.6086
1000703,-28.7639,153.6083
1000704,-28.7648,153.6081
1000705,-28.7657,153.6077
1000706,-28.7666,153.6071
1000707,-28.7675,153.6067
1000708,-28.7683,153.6062
1000709,-28.7692,153.6057
1000710,-28.77,153.6051
1000711,-28.7708,153.6045
1000712,-28.7716,153.6039
1000713,-28.7725,153.6034
1000714,-28.7734,153.6031
1000715,-28.7744,153.603
1000716,-28.7754,153.603
1000717,-28.7764,153.6029
1000718,-28.7774,153.6027
1000719,-28.7784,153.6027
1000720,-28.7794,153.6028
1000721,-28.7804,153.603
1000722,-28.7813,153.6031
1000723,-28.7823,153.6033
1000724,-28.7833,153.6034
1000725,-28.7843,153.6034
1000726,-28.7853,153.6033
1000727,-28.7863,153.6033
1000728,-28.7873,153.6031
1000729,-28.7883,153.603
1000730,-28.7893,153.603
1000731,-28.7903,153.6033
1000732,-28.7913,153.6034
1000733,-28.7922,153.6035
1000734,-28.7932,153.6037
1000735,-28.7942,153.6039
1000736,-28.7952,153.6039
1000737,-28.7962,153.6039
1000738,-28.7972,153.604
1000739,-28.7982,153.6041
1000740,-28.7992,153.6043
1000741,-28.8,153.6048
1000742,-28.8007,153.6056
1000743,-28.8015,153.6062
1000744,-28.8023,153.6068
1000745,-28.8032,153.6073
1000746,-28.8039,153.6079
